Taxable_Income,Density
-15212.582588254,5.26027070239163e-08
-14742.2456701004,6.964957495997e-08
-14271.9087519467,9.12552601789717e-08
-13801.5718337931,1.18340818255099e-07
-13331.2349156395,1.51937861019599e-07
-12860.8979974858,1.93187269923748e-07
-12390.5610793322,2.43335744820499e-07
-11920.2241611786,3.05703192000243e-07
-11449.8872430249,3.80983936218526e-07
-10979.5503248713,4.70234870774385e-07
-10509.2134067176,5.74962014016606e-07
-10038.876488564,6.96622668132203e-07
-9568.53957041037,8.3658406620845e-07
-9098.20265225673,9.96078933610234e-07
-8627.8657341031,1.17990580063976e-06
-8157.52881594946,1.38578720749958e-06
-7687.19189779583,1.61322213254278e-06
-7216.85497964219,1.86186246897453e-06
-6746.51806148855,2.13089111167303e-06
-6276.18114333492,2.41899295725738e-06
-5805.84422518128,2.7243325184206e-06
-5335.50730702765,3.04645225565402e-06
-4865.17038887401,3.37877138259998e-06
-4394.83347072037,3.71727978025042e-06
-3924.49655256674,4.05779137139118e-06
-3454.1596344131,4.39584073561301e-06
-2983.82271625947,4.72677061473246e-06
-2513.48579810583,5.04578607736396e-06
-2043.14887995219,5.34350077888435e-06
-1572.81196179856,5.61803061830229e-06
-1102.47504364492,5.86555888568167e-06
-632.138125491285,6.08281327940837e-06
-161.801207337649,6.26714445984453e-06
308.535710815988,6.41659309881255e-06
778.872628969624,6.52930577994297e-06
1249.20954712326,6.59902612679062e-06
1719.5464652769,6.63360639601504e-06
2189.88338343053,6.63492146980947e-06
2660.22030158417,6.60549069964863e-06
3130.5572197378,6.54839820097806e-06
3600.89413789144,6.46720562185988e-06
4071.23105604508,6.36537422590753e-06
4541.56797419871,6.24639855778764e-06
5011.90489235235,6.11801926504515e-06
5482.24181050598,5.98444644135068e-06
5952.57872865962,5.84967895080575e-06
6422.91564681326,5.71743484338569e-06
6893.25256496689,5.59109083875271e-06
7363.58948312053,5.47420952117497e-06
7833.92640127416,5.37116951231769e-06
8304.2633194278,5.28220380674583e-06
8774.60023758144,5.20850332673043e-06
9244.93715573507,5.15084666379264e-06
9715.27407388871,5.10963054186795e-06
10185.6109920423,5.08490375885565e-06
10655.947910196,5.07738450102865e-06
11126.2848283496,5.08742488390368e-06
11596.6217465033,5.11186926187424e-06
12066.9586646569,5.14970611677454e-06
12537.2955828105,5.19984172776663e-06
13007.6325009642,5.26112747840683e-06
13477.9694191178,5.33238438732909e-06
13948.3063372714,5.41299357274711e-06
14418.6432554251,5.50170804021213e-06
14888.9801735787,5.59634057088725e-06
15359.3170917323,5.6958259390788e-06
15829.654009886,5.79914803699194e-06
16299.9909280396,5.90534295266805e-06
16770.3278461933,6.01350155774192e-06
17240.6647643469,6.12277784781955e-06
17711.0016825005,6.23212730718216e-06
18181.3386006542,6.34077484916339e-06
18651.6755188078,6.44812520067972e-06
19122.0124369614,6.55365447806171e-06
19592.3493551151,6.6569127710553e-06
20062.6862732687,6.75752653401108e-06
20533.0231914223,6.85485255740216e-06
21003.360109576,6.94870134194786e-06
21473.6970277296,7.03929646037527e-06
21944.0339458832,7.1266597483927e-06
22414.3708640369,7.21088407051538e-06
22884.7077821905,7.29212808731306e-06
23355.0447003442,7.37061024438935e-06
23825.3816184978,7.44634915238151e-06
24295.7185366514,7.51990470172041e-06
24766.0554548051,7.59183289693448e-06
25236.3923729587,7.66250729160058e-06
25706.7292911123,7.73230108461973e-06
26177.066209266,7.80157889346384e-06
26647.4031274196,7.87068896107796e-06
27117.7400455732,7.94003210165101e-06
27588.0769637269,8.00995373628767e-06
28058.4138818805,8.08065354845937e-06
28528.7508000342,8.15229929903258e-06
28999.0877181878,8.2250127143094e-06
29469.4246363414,8.29886870774636e-06
29939.7615544951,8.37389507836279e-06
30410.0984726487,8.45023110059905e-06
30880.4353908023,8.52763463260261e-06
31350.772308956,8.60589982781207e-06
31821.1092271096,8.68483515634144e-06
32291.4461452632,8.76421165295227e-06
32761.7830634169,8.84376529454599e-06
33232.1199815705,8.92319955179473e-06
33702.4568997241,9.00202070276064e-06
34172.7938178778,9.07982991336815e-06
34643.1307360314,9.15625651524444e-06
35113.4676541851,9.23090331321921e-06
35583.8045723387,9.30336865124342e-06
36054.1414904923,9.37325174216679e-06
36524.478408646,9.44015817386022e-06
36994.8153267996,9.50298533000342e-06
37465.1522449532,9.56187592830832e-06
37935.4891631069,9.61658694098163e-06
38405.8260812605,9.66685484920352e-06
38876.1629994141,9.71245740087687e-06
39346.4999175678,9.75321638557372e-06
39816.8368357214,9.78899982994208e-06
40287.173753875,9.81870296786244e-06
40757.5106720287,9.8433300940813e-06
41227.8475901823,9.86294435423872e-06
41698.184508336,9.87764114375862e-06
42168.5214264896,9.88755331138242e-06
42638.8583446432,9.89284776193194e-06
43109.1952627969,9.89366556670076e-06
43579.5321809505,9.88957567058318e-06
44049.8690991041,9.88167861576363e-06
44520.2060172578,9.87025220186029e-06
44990.5429354114,9.85558588413587e-06
45460.8798535651,9.83797892199232e-06
45931.2167717187,9.81773876591945e-06
46401.5536898723,9.79512455848293e-06
46871.890608026,9.77027515077984e-06
47342.2275261796,9.743920203653e-06
47812.5644443332,9.71638976789827e-06
48282.9013624869,9.68801463752033e-06
48753.2382806405,9.6591247218671e-06
49223.5751987941,9.63004716359995e-06
49693.9121169478,9.60112807513145e-06
50164.2490351014,9.57283394296347e-06
50634.5859532551,9.54542630733799e-06
51104.9228714087,9.51916929795331e-06
51575.2597895623,9.49430159442839e-06
52045.596707716,9.47103259845709e-06
52515.9336258696,9.4495387195482e-06
52986.2705440232,9.43008019253292e-06
53456.6074621769,9.41293271391234e-06
53926.9443803305,9.39782937872867e-06
54397.2812984841,9.38473162954092e-06
54867.6182166378,9.37355391400402e-06
55337.9551347914,9.36416452740736e-06
55808.2920529451,9.35638701247831e-06
56278.6289710987,9.35007877305089e-06
56748.9658892523,9.34492498081774e-06
57219.302807406,9.34042874104655e-06
57689.6397255596,9.33624691099805e-06
58159.9766437132,9.33202072601005e-06
58630.3135618669,9.32738170405951e-06
59100.6504800205,9.32195764900493e-06
59570.9873981741,9.31523130603983e-06
60041.3243163278,9.30668596563442e-06
60511.6612344814,9.2961384209794e-06
60981.998152635,9.28330109462081e-06
61452.3350707887,9.26792095748126e-06
61922.6719889423,9.24978320123181e-06
62393.008907096,9.22871448210575e-06
62863.3458252496,9.20425439421441e-06
63333.6827434032,9.17634818592697e-06
63804.0196615569,9.14530971609109e-06
64274.3565797105,9.11120086018061e-06
64744.6934978641,9.07412917375318e-06
65215.0304160178,9.03424595195354e-06
65685.3673341714,8.99174389631903e-06
66155.704252325,8.94661362484206e-06
66626.0411704787,8.89932711640193e-06
67096.3780886323,8.85039596572978e-06
67566.7150067859,8.80015635699343e-06
68037.0519249396,8.74895660994373e-06
68507.3888430932,8.69715178219206e-06
68977.7257612468,8.64509813161538e-06
69448.0626794005,8.59322504159089e-06
69918.3995975541,8.54196015062587e-06
70388.7365157078,8.49158541005786e-06
70859.0734338614,8.44235996834742e-06
71329.410352015,8.39450454419357e-06
71799.7472701687,8.34819680113152e-06
72270.0841883223,8.30356708217361e-06
72740.4211064759,8.2609585163912e-06
73210.7580246296,8.22018300825743e-06
73681.0949427832,8.18105882814542e-06
74151.4318609368,8.1434388313647e-06
74621.7687790905,8.10712235585799e-06
75092.1056972441,8.0718584765891e-06
75562.4426153977,8.03735003667952e-06
76032.7795335514,8.00323419453385e-06
76503.116451705,7.96896730536314e-06
76973.4533698587,7.93412989234911e-06
77443.7902880123,7.89831195830365e-06
77914.1272061659,7.86110946066096e-06
78384.4641243196,7.82213282790795e-06
78854.8010424732,7.78101532678497e-06
79325.1379606268,7.73689926621925e-06
79795.4748787805,7.6898562920992e-06
80265.8117969341,7.63974768093222e-06
80736.1487150877,7.58643833147744e-06
81206.4856332414,7.52985123124188e-06
81676.822551395,7.46996779651277e-06
82147.1594695487,7.4068272888512e-06
82617.4963877023,7.33995341240439e-06
83087.8333058559,7.27016634221234e-06
83558.1702240096,7.19771407719162e-06
84028.5071421632,7.12285739810876e-06
84498.8440603168,7.04588065933973e-06
84969.1809784705,6.96708487015667e-06
85439.5178966241,6.88676992168149e-06
85909.8548147777,6.80512300221675e-06
86380.1917329314,6.72272791864282e-06
86850.528651085,6.63985679617327e-06
87320.8655692386,6.55675750366301e-06
87791.2024873923,6.47365073911514e-06
88261.5394055459,6.39072774284492e-06
88731.8763236996,6.30816096570997e-06
89202.2132418532,6.22617575804517e-06
89672.5501600068,6.1447771212028e-06
90142.8870781605,6.0640056664459e-06
90613.2239963141,5.98387894942561e-06
91083.5609144677,5.90439491484589e-06
91553.8978326214,5.82553555792044e-06
92024.234750775,5.74729278004672e-06
92494.5716689286,5.6696841796951e-06
92964.9085870823,5.59257678933851e-06
93435.2455052359,5.51594226389392e-06
93905.5824233896,5.43976359880383e-06
94375.9193415432,5.36403797377165e-06
94846.2562596968,5.28877925605459e-06
95316.5931778505,5.21405255194558e-06
95786.9300960041,5.13999434717524e-06
96257.2670141577,5.06662673095986e-06
96727.6039323114,4.99406602866676e-06
97197.940850465,4.92244643876373e-06
97668.2777686186,4.85191756648597e-06
98138.6146867723,4.78264154528119e-06
98608.9516049259,4.71490735495353e-06
99079.2885230796,4.64905126024637e-06
99549.6254412332,4.585050204112e-06
100019.962359387,4.52305771658579e-06
100490.29927754,4.46320889910732e-06
100960.636195694,4.40561596059927e-06
101430.973113848,4.35036402096563e-06
101901.310032001,4.2977137703966e-06
102371.646950155,4.24773969530314e-06
102841.983868309,4.20010396232259e-06
103312.320786462,4.15471007280837e-06
103782.657704616,4.11142471832586e-06
104252.99462277,4.07008018818887e-06
104723.331540923,4.03047743875713e-06
105193.668459077,3.99250797880968e-06
105664.00537723,3.95582005399563e-06
106134.342295384,3.91999436252244e-06
106604.679213538,3.88476394962582e-06
107075.016131691,3.84986994658987e-06
107545.353049845,3.81506753142852e-06
108015.689967999,3.78013158981802e-06
108486.026886152,3.74479841754874e-06
108956.363804306,3.70887349247682e-06
109426.70072246,3.67229000877175e-06
109897.037640613,3.63498792860851e-06
110367.374558767,3.59694372915235e-06
110837.71147692,3.55816883205684e-06
111308.048395074,3.51870739548571e-06
111778.385313228,3.47857292323638e-06
112248.722231381,3.43794813096402e-06
112719.059149535,3.3970063637094e-06
113189.396067689,3.35588596424162e-06
113659.732985842,3.31472788442827e-06
114130.069903996,3.27367145303338e-06
114600.40682215,3.23285042886205e-06
115070.743740303,3.19246427618265e-06
115541.080658457,3.15261435868789e-06
116011.41757661,3.11335986259321e-06
116481.754494764,3.07476471561326e-06
116952.091412918,3.03687714281915e-06
117422.428331071,2.99973059869339e-06
117892.765249225,2.96334500925625e-06
118363.102167379,2.92785222152304e-06
118833.439085532,2.89315110673688e-06
119303.776003686,2.8591977327065e-06
119774.11292184,2.82597648830761e-06
120244.449839993,2.79347048909769e-06
120714.786758147,2.76166269212177e-06
121185.1236763,2.7305368004207e-06
121655.460594454,2.70019345595907e-06
122125.797512608,2.67051497051947e-06
122596.134430761,2.64147377887108e-06
123066.471348915,2.61305908735291e-06
123536.808267069,2.5852596439186e-06
124007.145185222,2.55806311322543e-06
124477.482103376,2.53145546743394e-06
124947.81902153,2.50552507823211e-06
125418.155939683,2.48014112526367e-06
125888.492857837,2.45527342886963e-06
126358.82977599,2.43089497000345e-06
126829.166694144,2.40697695372534e-06
127299.503612298,2.38348944141503e-06
127769.840530451,2.36040413221015e-06
128240.177448605,2.33775387773529e-06
128710.514366759,2.31543425332929e-06
129180.851284912,2.29342367455268e-06
129651.188203066,2.27170510099454e-06
130121.52512122,2.25026657777185e-06
130591.862039373,2.2291016761335e-06
131062.198957527,2.20821576806046e-06
131532.53587568,2.18766434468627e-06
132002.872793834,2.16741496289725e-06
132473.209711988,2.14749004616516e-06
132943.546630141,2.12791647658766e-06
133413.883548295,2.10872487533865e-06
133884.220466449,2.08994881378466e-06
134354.557384602,2.07164204274751e-06
134824.894302756,2.05391692893872e-06
135295.23122091,2.0367325893825e-06
135765.568139063,2.02012049265181e-06
136235.905057217,2.00410786464708e-06
136706.24197537,1.98871666394965e-06
137176.578893524,1.97396259976986e-06
137646.915811678,1.95988726094511e-06
138117.252729831,1.94654991738263e-06
138587.589647985,1.93383427474177e-06
139057.926566139,1.92171178066774e-06
139528.263484292,1.91014390735858e-06
139998.600402446,1.89908235059055e-06
140468.9373206,1.88846938091861e-06
140939.274238753,1.87825696647818e-06
141409.611156907,1.86836066761667e-06
141879.94807506,1.85864302976792e-06
142350.284993214,1.84901473410467e-06
142820.621911368,1.83938517118657e-06
143290.958829521,1.82966415899567e-06
143761.295747675,1.81976368890542e-06
144231.632665829,1.80956978925191e-06
144701.969583982,1.79896810316766e-06
145172.306502136,1.78793175842627e-06
145642.64342029,1.7764126613624e-06
146112.980338443,1.76437510722631e-06
146583.317256597,1.75179642579994e-06
147053.65417475,1.73866743425202e-06
147523.991092904,1.72494275646267e-06
147994.328011058,1.71065209048711e-06
148464.664929211,1.69589583939285e-06
148935.001847365,1.68072752173723e-06
149405.338765519,1.66520963702848e-06
149875.675683672,1.64941217460972e-06
150346.012601826,1.63341103850981e-06
150816.34951998,1.61728535437855e-06
151286.686438133,1.60114972364951e-06
151757.023356287,1.58509410593941e-06
152227.36027444,1.56919429820832e-06
152697.697192594,1.55352073706875e-06
153168.034110748,1.53813733754782e-06
153638.371028901,1.52310045956859e-06
154108.707947055,1.50851460233454e-06
154579.044865209,1.4944034163455e-06
155049.381783362,1.48075616033899e-06
155519.718701516,1.46758266023541e-06
155990.05561967,1.45488385427355e-06
156460.392537823,1.44265239967655e-06
156930.729455977,1.43087339703916e-06
157401.06637413,1.4195810755464e-06
157871.403292284,1.40870112067578e-06
158341.740210438,1.3981749272595e-06
158812.077128591,1.38796834279947e-06
159282.414046745,1.37804746072619e-06
159752.750964899,1.36837970918336e-06
160223.087883052,1.35893487792271e-06
160693.424801206,1.34971268799097e-06
161163.76171936,1.34066547123294e-06
161634.098637513,1.33177230344191e-06
162104.435555667,1.32302589512405e-06
162574.77247382,1.314423786524e-06
163045.109391974,1.30596791688102e-06
163515.446310128,1.29766406240746e-06
163985.783228281,1.28955197298583e-06
164456.120146435,1.2816221562842e-06
164926.457064589,1.27388051900072e-06
165396.793982742,1.26633581901004e-06
165867.130900896,1.25899402951313e-06
166337.46781905,1.25185752345133e-06
166807.804737203,1.24492434448097e-06
167278.141655357,1.23822027406159e-06
167748.47857351,1.231691199391e-06
168218.815491664,1.22531127656839e-06
168689.152409818,1.2190524504601e-06
169159.489327971,1.21288238845854e-06
169629.826246125,1.20676512734355e-06
170100.163164279,1.20066174395212e-06
170570.500082432,1.19451317824936e-06
171040.837000586,1.18827524586255e-06
171511.17391874,1.18190814961967e-06
171981.510836893,1.17537449601391e-06
172451.847755047,1.16864003378379e-06
172922.1846732,1.16167433165192e-06
173392.521591354,1.15444661857576e-06
173862.858509508,1.14688518161589e-06
174333.195427661,1.13902839737045e-06
174803.532345815,1.1308726627705e-06
175273.869263969,1.12242026423298e-06
175744.206182122,1.1136792301104e-06
176214.543100276,1.10466310880215e-06
176684.88001843,1.09538344265747e-06
177155.216936583,1.08584165875926e-06
177625.553854737,1.07611220775463e-06
178095.89077289,1.06622807787535e-06
178566.227691044,1.05622350750172e-06
179036.564609198,1.04613307967785e-06
179506.901527351,1.03599079931764e-06
179977.238445505,1.02582999195786e-06
180447.575363659,1.01568961304057e-06
180917.912281812,1.00559371644962e-06
181388.249199966,9.95557991658039e-07
181858.58611812,9.85592095325984e-07
182328.923036273,9.75699366149153e-07
182799.259954427,9.65876665039524e-07
183269.59687258,9.56116599884041e-07
183739.933790734,9.46397439967634e-07
184210.270708888,9.36684386586416e-07
184680.607627041,9.26947208069635e-07
185150.944545195,9.17153023912411e-07
185621.281463349,9.07267382482858e-07
186091.618381502,8.97255373482611e-07
186561.955299656,8.87067001622211e-07
187032.292217809,8.76651782497549e-07
187502.629135963,8.66006220244921e-07
187972.966054117,8.55112124993264e-07
188443.30297227,8.43957598783005e-07
188913.639890424,8.32537471647537e-07
189383.976808578,8.20853612414037e-07
189854.313726731,8.0889379604936e-07
190324.650644885,7.96681165597133e-07
190794.987563039,7.8427255239607e-07
191265.324481192,7.71702351067035e-07
191735.661399346,7.59009280380636e-07
192205.9983175,7.4623544806665e-07
192676.335235653,7.33425355880434e-07
193146.672153807,7.20632669666608e-07
193617.00907196,7.0791865687863e-07
194087.345990114,6.9532301094668e-07
194557.682908268,6.8288256151017e-07
195028.019826421,6.70628798111722e-07
195498.356744575,6.58586941054197e-07
195968.693662729,6.46775078656474e-07
196439.030580882,6.35232547867434e-07
196909.367499036,6.23943538526515e-07
197379.704417189,6.1287165814438e-07
197850.041335343,6.0198996764322e-07
198320.378253497,5.9126237630171e-07
198790.71517165,5.80644080904632e-07
199261.052089804,5.70082145207424e-07
199731.389007958,5.5950195206776e-07
200201.725926111,5.48812924015499e-07
200672.062844265,5.3794248877858e-07
201142.399762419,5.26816304156205e-07
201612.736680572,5.15360950268478e-07
202083.073598726,5.03505614910477e-07
202553.41051688,4.91183792779527e-07
203023.747435033,4.78243098128957e-07
203494.084353187,4.64680030984493e-07
203964.42127134,4.50490119142898e-07
204434.758189494,4.3565583828511e-07
204905.095107648,4.20173176300619e-07
205375.432025801,4.04052142801063e-07
205845.768943955,3.8731709415666e-07
206316.105862109,3.6992425244984e-07
206786.442780262,3.52029756341261e-07
207256.779698416,3.33730326902329e-07
207727.116616569,3.15114574761945e-07
208197.453534723,2.9628001837677e-07
208667.790452877,2.77331475718824e-07
209138.12737103,2.5837935258992e-07
209608.464289184,2.39589807028658e-07
210078.801207338,2.2108557185752e-07
210549.138125491,2.02974445637644e-07
211019.475043645,1.85361063962164e-07
211489.811961799,1.68342946471598e-07
211960.148879952,1.52009093843297e-07
212430.485798106,1.36438712680334e-07
212900.822716259,1.21881493596639e-07
213371.159634413,1.0823014678183e-07
213841.496552567,9.55135832343289e-08
214311.83347072,8.37502370064185e-08
214782.170388874,7.29465119682343e-08
215252.507307028,6.30973249087464e-08
215722.844225181,5.41984971512882e-08
216193.181143335,4.63732818839984e-08
216663.518061489,3.94016686469249e-08
217133.854979642,3.32364712731031e-08
217604.191897796,2.78261787563679e-08
218074.528815949,2.31160853222886e-08
218544.865734103,1.90493798601407e-08
219015.202652257,1.55826723477103e-08
219485.53957041,1.27169423876718e-08
219955.876488564,1.02954556812761e-08
220426.213406718,8.2661824224907e-09
220896.550324871,6.58018051676239e-09
221366.887243025,5.1918796121589e-09
221837.224161179,4.05929597530146e-09
222307.561079332,3.15177930657113e-09
222777.897997486,2.44637902207691e-09
223248.234915639,1.88159113559556e-09
223718.571833793,1.43361818050372e-09
224188.908751947,1.08175790864885e-09
224659.2456701,8.08175084317146e-10
225129.582588254,5.9766671457816e-10
-7600.23316761324,4.83769295596554e-08
-7159.68430981436,8.0512163867033e-08
-6719.13545201549,1.3228098329059e-07
-6278.58659421661,2.11644149850016e-07
-5838.03773641773,3.2817100314656e-07
-5397.48887861885,4.93474461665868e-07
-4956.94002081997,7.2011356931349e-07
-4516.3911630211,1.02052049266804e-06
-4075.84230522222,1.40554727018102e-06
-3635.29344742334,1.88274362322175e-06
-3194.74458962446,2.45455871201706e-06
-2754.19573182559,3.11672738343229e-06
-2313.64687402671,3.85714075846723e-06
-1873.09801622783,4.65549823917941e-06
-1432.54915842895,5.48334687954836e-06
-992.000300630075,6.30102424966708e-06
